Laser intensity (%),Current (nA)
1,None
2,None
3,None
4,0.59
5,1.43
6,2.21
7,2.8
8,3.37
9,3.71
10,4.1
11,4.43
12,4.74
13,5.04
14,5.36
15,5.66
16,6.02
17,6.39
18,6.82
19,7.32
20,7.85
25,10.26
30,12.56
35,14.99
40,17.6
45,20.1
50,22.63
55,25.12
60,27.71
65,30.26
70,32.9
75,35.34
80,37.75
85,40.19
90,42.59
95,44.89
100,47.24